**** COMMENT ****

**** INPUTS ****
kVp [kV] hvMIN [keV] Dhv [keV]
100  10  1
Angle [deg.]
30
t_AIR t_BE t_AL t_CU t_SN t_W t_Ta t_Ti t_C t_Wa [mm]
1000  0.8  1.2  0.11  0  0  0  0  0  0
Nf P
0.68  0.33
****CALCULATED OUTPUTS ****
Brem[uGy/mAs@1m] Char[uGy/mAs@1m]
63.7084  3.450074
HVL1[cm AL] HVL2[cm AL] HVL1[cmCu] HVL2[cmCu] MeanE[keV] EffEAl[keV] EffECu[keV]
0.4683776  0.6591558  0.0185513  0.03424  52.83444  40.68596  42.25897
**** CALCULATED SPECTRUM ****
Energy[keV]  N[keV cm^2 mAs]^-1 @ 1 meter
10  1.990988e-6
11  0.0009899
12  0.1124679
13  4.614449
14  75.07356
15  642.6367
16  3433.048
17  12579.21
18  35293.18
19  81023.19
20  158681.3
21  273475.5
22  430586.1
23  623694.4
24  851467.6
25  1.096542e+6
26  1.359347e+6
27  1.617757e+6
28  1.891792e+6
29  2.130474e+6
30  2.359587e+6
31  2.565786e+6
32  2.752773e+6
33  2.914726e+6
34  3.056448e+6
35  3.171219e+6
36  3.263417e+6
37  3.335242e+6
38  3.390000e+6
39  3.423186e+6
40  3.444417e+6
41  3.449005e+6
42  3.443776e+6
43  3.426628e+6
44  3.401614e+6
45  3.364548e+6
46  3.324076e+6
47  3.275640e+6
48  3.223460e+6
49  3.166172e+6
50  3.105362e+6
51  3.041508e+6
52  2.972771e+6
53  2.905487e+6
54  2.836325e+6
55  2.767867e+6
56  2.695465e+6
57  2.623524e+6
58  5.900443e+6
59  8.342239e+6
60  2.411089e+6
61  2.340047e+6
62  2.269364e+6
63  2.198960e+6
64  2.131534e+6
65  2.061651e+6
66  1.995175e+6
67  3.930970e+6
68  1.862481e+6
69  2.324365e+6
70  1.661269e+6
71  1.602827e+6
72  1.547384e+6
73  1.491827e+6
74  1.436995e+6
75  1.382576e+6
76  1.328610e+6
77  1.275068e+6
78  1.222826e+6
79  1.170301e+6
80  1.118930e+6
81  1.067326e+6
82  1.017444e+6
83  966758
84  917097.5
85  867043.8
86  818332.9
87  768921.7
88  720532.2
89  670937.5
90  622845.7
91  572993.4
92  524649.6
93  474180.3
94  425053
95  370208.8
96  316665.9
97  263319.7
98  211486
99  104266.5
100  0
