**** COMMENT ****

**** INPUTS ****
kVp [kV] hvMIN [keV] Dhv [keV]
120  12  0.1
Angle [deg.]
30
t_AIR t_BE t_AL t_CU t_SN t_W t_Ta t_Ti t_C t_Wa [mm]
1000  0.8  1.2  0  0  0  0  0  0  0
Nf P
0.68  0.33
****CALCULATED OUTPUTS ****
Brem[uGy/mAs@1m] Char[uGy/mAs@1m]
224.8586  9.00847
HVL1[cm AL] HVL2[cm AL] HVL1[cmCu] HVL2[cmCu] MeanE[keV] EffEAl[keV] EffECu[keV]
0.2222209  0.4367399  0.0075001  0.0190125  48.90339  29.74748  30.61623
**** CALCULATED SPECTRUM ****
Energy[keV]  N[keV cm^2 mAs]^-1 @ 1 meter
12  71934.55
12.1  80004.31
12.2  88905.49
12.3  98807.62
12.4  109824.3
12.5  122082
12.6  135722
12.7  150901.3
12.8  167795.3
12.9  186599.3
13  207531
13.1  226241.2
13.2  246699.2
13.3  269074.2
13.4  293552.4
13.5  320339
13.6  349659.6
13.7  381763.1
13.8  416923.7
13.9  455443.6
14  497656.2
14.1  530963.5
14.2  566605.8
14.3  604754.4
14.4  645593.4
14.5  689810.5
14.6  736629.9
14.7  786778.5
14.8  840503.9
14.9  898073
15  959773.8
15.1  1.009366e+6
15.2  1.061689e+6
15.3  1.116902e+6
15.4  1.175174e+6
15.5  1.236685e+6
15.6  1.301625e+6
15.7  1.370196e+6
15.8  1.442615e+6
15.9  1.519110e+6
16  1.599925e+6
16.1  1.662512e+6
16.2  1.727754e+6
16.3  1.795769e+6
16.4  1.866685e+6
16.5  1.940633e+6
16.6  2.017752e+6
16.7  2.098187e+6
16.8  2.182090e+6
16.9  2.271015e+6
17  2.362245e+6
17.1  2.432740e+6
17.2  2.505572e+6
17.3  2.580825e+6
17.4  2.658586e+6
17.5  2.738944e+6
17.6  2.821992e+6
17.7  2.907829e+6
17.8  2.996554e+6
17.9  3.088272e+6
18  3.183092e+6
18.1  3.257612e+6
18.2  3.334132e+6
18.3  3.412708e+6
18.4  3.493401e+6
18.5  3.576272e+6
18.6  3.661385e+6
18.7  3.748806e+6
18.8  3.838603e+6
18.9  3.930845e+6
19  4.025606e+6
19.1  4.099093e+6
19.2  4.174184e+6
19.3  4.253210e+6
19.4  4.331382e+6
19.5  4.411264e+6
19.6  4.492897e+6
19.7  4.576323e+6
19.8  4.661584e+6
19.9  4.748724e+6
20  4.837789e+6
20.1  4.906333e+6
20.2  4.976111e+6
20.3  5.047144e+6
20.4  5.119458e+6
20.5  5.193077e+6
20.6  5.268026e+6
20.7  5.344332e+6
20.8  5.422020e+6
20.9  5.501117e+6
21  5.581652e+6
21.1  5.642932e+6
21.2  5.705141e+6
21.3  5.768291e+6
21.4  5.832398e+6
21.5  5.897477e+6
21.6  5.963542e+6
21.7  6.033509e+6
21.8  6.101224e+6
21.9  6.169967e+6
22  6.239752e+6
22.1  6.292131e+6
22.2  6.345193e+6
22.3  6.398944e+6
22.4  6.453394e+6
22.5  6.508551e+6
22.6  6.564423e+6
22.7  6.621021e+6
22.8  6.678353e+6
22.9  6.736427e+6
23  6.795254e+6
23.1  6.838550e+6
23.2  6.882350e+6
23.3  6.926660e+6
23.4  6.971484e+6
23.5  7.016828e+6
23.6  7.062695e+6
23.7  7.109092e+6
23.8  7.156023e+6
23.9  7.203494e+6
24  7.251509e+6
24.1  7.286738e+6
24.2  7.318692e+6
24.3  7.351000e+6
24.4  7.383666e+6
24.5  7.416691e+6
24.6  7.450077e+6
24.7  7.483827e+6
24.8  7.517943e+6
24.9  7.552426e+6
25  7.587281e+6
25.1  7.613711e+6
25.2  7.640436e+6
25.3  7.667455e+6
25.4  7.694769e+6
25.5  7.722381e+6
25.6  7.750291e+6
25.7  7.778500e+6
25.8  7.807011e+6
25.9  7.835823e+6
26  7.864938e+6
26.1  7.883188e+6
26.2  7.901667e+6
26.3  7.920375e+6
26.4  7.939313e+6
26.5  7.961638e+6
26.6  7.980536e+6
26.7  7.999664e+6
26.8  8.019021e+6
26.9  8.038608e+6
27  8.058424e+6
27.1  8.069950e+6
27.2  8.081666e+6
27.3  8.093573e+6
27.4  8.105670e+6
27.5  8.117956e+6
27.6  8.130433e+6
27.7  8.143098e+6
27.8  8.155953e+6
27.9  8.168996e+6
28  8.182227e+6
28.1  8.187859e+6
28.2  8.193657e+6
28.3  8.199620e+6
28.4  8.205747e+6
28.5  8.212038e+6
28.6  8.218491e+6
28.7  8.225107e+6
28.8  8.235405e+6
28.9  8.241828e+6
29  8.248412e+6
29.1  8.247539e+6
29.2  8.246816e+6
29.3  8.246243e+6
29.4  8.245818e+6
29.5  8.245541e+6
29.6  8.245411e+6
29.7  8.245427e+6
29.8  8.245588e+6
29.9  8.245893e+6
30  8.246341e+6
30.1  8.242534e+6
30.2  8.238868e+6
30.3  8.235342e+6
30.4  8.231955e+6
30.5  8.228706e+6
30.6  8.225593e+6
30.7  8.222617e+6
30.8  8.219775e+6
30.9  8.217068e+6
31  8.214493e+6
31.1  8.207613e+6
31.2  8.200867e+6
31.3  8.197035e+6
31.4  8.190065e+6
31.5  8.183227e+6
31.6  8.176520e+6
31.7  8.169944e+6
31.8  8.163496e+6
31.9  8.157177e+6
32  8.150985e+6
32.1  8.141119e+6
32.2  8.131384e+6
32.3  8.121780e+6
32.4  8.112305e+6
32.5  8.102959e+6
32.6  8.093739e+6
32.7  8.084646e+6
32.8  8.075677e+6
32.9  8.066832e+6
33  8.058109e+6
33.1  8.046250e+6
33.2  8.034518e+6
33.3  8.022914e+6
33.4  8.011436e+6
33.5  8.000082e+6
33.6  7.991858e+6
33.7  7.980260e+6
33.8  7.968786e+6
33.9  7.957434e+6
34  7.946204e+6
34.1  7.931844e+6
34.2  7.917613e+6
34.3  7.903510e+6
34.4  7.889534e+6
34.5  7.875682e+6
34.6  7.861955e+6
34.7  7.848351e+6
34.8  7.834868e+6
34.9  7.821507e+6
35  7.808265e+6
35.1  7.792314e+6
35.2  7.776490e+6
35.3  7.760793e+6
35.4  7.745220e+6
35.5  7.729772e+6
35.6  7.714446e+6
35.7  7.699241e+6
35.8  7.684157e+6
35.9  7.669192e+6
36  7.654346e+6
36.1  7.640521e+6
36.2  7.624094e+6
36.3  7.607791e+6
36.4  7.591609e+6
36.5  7.575548e+6
36.6  7.559608e+6
36.7  7.543785e+6
36.8  7.528081e+6
36.9  7.512493e+6
37  7.497020e+6
37.1  7.479749e+6
37.2  7.462600e+6
37.3  7.445571e+6
37.4  7.428661e+6
37.5  7.411870e+6
37.6  7.395196e+6
37.7  7.378638e+6
37.8  7.362195e+6
37.9  7.345866e+6
38  7.329650e+6
38.1  7.311723e+6
38.2  7.293916e+6
38.3  7.276226e+6
38.4  7.258654e+6
38.5  7.243242e+6
38.6  7.225485e+6
38.7  7.207845e+6
38.8  7.190321e+6
38.9  7.172912e+6
39  7.155617e+6
39.1  7.137349e+6
39.2  7.119197e+6
39.3  7.101162e+6
39.4  7.083242e+6
39.5  7.065437e+6
39.6  7.047744e+6
39.7  7.030163e+6
39.8  7.012694e+6
39.9  6.995335e+6
40  6.978085e+6
40.1  6.959873e+6
40.2  6.941774e+6
40.3  6.923787e+6
40.4  6.905911e+6
40.5  6.888144e+6
40.6  6.870487e+6
40.7  6.852937e+6
40.8  6.837718e+6
40.9  6.819980e+6
41  6.802350e+6
41.1  6.783693e+6
41.2  6.765149e+6
41.3  6.746716e+6
41.4  6.728393e+6
41.5  6.710180e+6
41.6  6.692075e+6
41.7  6.674078e+6
41.8  6.656187e+6
41.9  6.638402e+6
42  6.620721e+6
42.1  6.602371e+6
42.2  6.584129e+6
42.3  6.565993e+6
42.4  6.547962e+6
42.5  6.530036e+6
42.6  6.512214e+6
42.7  6.494495e+6
42.8  6.476878e+6
42.9  6.459362e+6
43  6.441947e+6
43.1  6.423991e+6
43.2  6.408140e+6
43.3  6.390026e+6
43.4  6.372014e+6
43.5  6.354105e+6
43.6  6.336298e+6
43.7  6.318591e+6
43.8  6.300984e+6
43.9  6.283476e+6
44  6.266067e+6
44.1  6.248003e+6
44.2  6.230040e+6
44.3  6.212177e+6
44.4  6.194414e+6
44.5  6.176749e+6
44.6  6.159183e+6
44.7  6.141713e+6
44.8  6.124340e+6
44.9  6.107062e+6
45  6.089879e+6
45.1  6.072362e+6
45.2  6.054940e+6
45.3  6.037614e+6
45.4  6.020382e+6
45.5  6.003243e+6
45.6  5.986198e+6
45.7  5.970703e+6
45.8  5.953488e+6
45.9  5.936365e+6
46  5.919336e+6
46.1  5.901794e+6
46.2  5.884347e+6
46.3  5.866994e+6
46.4  5.849735e+6
46.5  5.832567e+6
46.6  5.815491e+6
46.7  5.798506e+6
46.8  5.781612e+6
46.9  5.764807e+6
47  5.748090e+6
47.1  5.730958e+6
47.2  5.713916e+6
47.3  5.696964e+6
47.4  5.680101e+6
47.5  5.663327e+6
47.6  5.646641e+6
47.7  5.630042e+6
47.8  5.613529e+6
47.9  5.597102e+6
48  5.582395e+6
48.1  5.565747e+6
48.2  5.549185e+6
48.3  5.532709e+6
48.4  5.516318e+6
48.5  5.500012e+6
48.6  5.483791e+6
48.7  5.467653e+6
48.8  5.451597e+6
48.9  5.435624e+6
49  5.419733e+6
49.1  5.403433e+6
49.2  5.387216e+6
49.3  5.371083e+6
49.4  5.355031e+6
49.5  5.339061e+6
49.6  5.323173e+6
49.7  5.307364e+6
49.8  5.291636e+6
49.9  5.275986e+6
50  5.260416e+6
50.1  5.244586e+6
50.2  5.228836e+6
50.3  5.213164e+6
50.4  5.197572e+6
50.5  5.183254e+6
50.6  5.167538e+6
50.7  5.151901e+6
50.8  5.136342e+6
50.9  5.120860e+6
51  5.105455e+6
51.1  5.089889e+6
51.2  5.074401e+6
51.3  5.058989e+6
51.4  5.043654e+6
51.5  5.028394e+6
51.6  5.013210e+6
51.7  4.998101e+6
51.8  4.983066e+6
51.9  4.968104e+6
52  4.953216e+6
52.1  4.938316e+6
52.2  4.923489e+6
52.3  4.908735e+6
52.4  4.894052e+6
52.5  4.879440e+6
52.6  4.864899e+6
52.7  4.850429e+6
52.8  4.837370e+6
52.9  4.822770e+6
53  4.808241e+6
53.1  4.793532e+6
53.2  4.778894e+6
53.3  4.764327e+6
53.4  4.749830e+6
53.5  4.735402e+6
53.6  4.721045e+6
53.7  4.706755e+6
53.8  4.692535e+6
53.9  4.678382e+6
54  4.664297e+6
54.1  4.650101e+6
54.2  4.635973e+6
54.3  4.621912e+6
54.4  4.607917e+6
54.5  4.593989e+6
54.6  4.580127e+6
54.7  4.566331e+6
54.8  4.552599e+6
54.9  4.538931e+6
55  4.525328e+6
55.1  4.511499e+6
55.2  4.498960e+6
55.3  4.485005e+6
55.4  4.471115e+6
55.5  4.457291e+6
55.6  4.443532e+6
55.7  4.429837e+6
55.8  4.416207e+6
55.9  4.402640e+6
56  4.389136e+6
56.1  4.375687e+6
56.2  4.362300e+6
56.3  4.348975e+6
56.4  4.335712e+6
56.5  4.322511e+6
56.6  4.309370e+6
56.7  4.296290e+6
56.8  4.283271e+6
56.9  4.270311e+6
57  4.257410e+6
57.1  4.244517e+6
57.2  4.231683e+6
57.3  4.218908e+6
57.4  4.206191e+6
57.5  4.193532e+6
57.6  4.182053e+6
57.7  4.169257e+6
57.8  4.156520e+6
57.9  4.143841e+6
58  9.283843e+7
58.1  4.118441e+6
58.2  4.105722e+6
58.3  4.093060e+6
58.4  4.080456e+6
58.5  4.067908e+6
58.6  4.055418e+6
58.7  4.042984e+6
58.8  4.030605e+6
58.9  4.018283e+6
59  4.006016e+6
59.1  3.993733e+6
59.2  3.981506e+6
59.3  1.582981e+8
59.4  3.957215e+6
59.5  3.945150e+6
59.6  3.933140e+6
59.7  3.921182e+6
59.8  3.909278e+6
59.9  3.897426e+6
60  3.885627e+6
60.1  3.874519e+6
60.2  3.862436e+6
60.3  3.850407e+6
60.4  3.838431e+6
60.5  3.826509e+6
60.6  3.814640e+6
60.7  3.802823e+6
60.8  3.791058e+6
60.9  3.779346e+6
61  3.767685e+6
61.1  3.756130e+6
61.2  3.744627e+6
61.3  3.733173e+6
61.4  3.721770e+6
61.5  3.710417e+6
61.6  3.699112e+6
61.7  3.687857e+6
61.8  3.676651e+6
61.9  3.665493e+6
62  3.654383e+6
62.1  3.643134e+6
62.2  3.631934e+6
62.3  3.620782e+6
62.4  3.609678e+6
62.5  3.599348e+6
62.6  3.588119e+6
62.7  3.576939e+6
62.8  3.565807e+6
62.9  3.554723e+6
63  3.543687e+6
63.1  3.532823e+6
63.2  3.522006e+6
63.3  3.511234e+6
63.4  3.500509e+6
63.5  3.489829e+6
63.6  3.479195e+6
63.7  3.468606e+6
63.8  3.458062e+6
63.9  3.447563e+6
64  3.437108e+6
64.1  3.426397e+6
64.2  3.415731e+6
64.3  3.405111e+6
64.4  3.394536e+6
64.5  3.384006e+6
64.6  3.373521e+6
64.7  3.363080e+6
64.8  3.353560e+6
64.9  3.342994e+6
65  3.332474e+6
65.1  3.322195e+6
65.2  3.311960e+6
65.3  3.301767e+6
65.4  3.291617e+6
65.5  3.281509e+6
65.6  3.271444e+6
65.7  3.261420e+6
65.8  3.251438e+6
65.9  3.241498e+6
66  3.231599e+6
66.1  3.221524e+6
66.2  3.211491e+6
66.3  3.201500e+6
66.4  3.191551e+6
66.5  3.181644e+6
66.6  3.171777e+6
66.7  3.161951e+6
66.8  3.152166e+6
66.9  3.142422e+6
67  3.132718e+6
67.1  3.123075e+6
67.2  5.339632e+7
67.3  3.104524e+6
67.4  3.094806e+6
67.5  3.085128e+6
67.6  3.075490e+6
67.7  3.065891e+6
67.8  3.056332e+6
67.9  3.046813e+6
68  3.037332e+6
68.1  3.027845e+6
68.2  3.018397e+6
68.3  3.008988e+6
68.4  2.999617e+6
68.5  2.990285e+6
68.6  2.980990e+6
68.7  2.971734e+6
68.8  2.962514e+6
68.9  2.953333e+6
69  2.944188e+6
69.1  1.600998e+7
69.2  2.925820e+6
69.3  2.916692e+6
69.4  2.907602e+6
69.5  2.898548e+6
69.6  2.705568e+6
69.7  2.697948e+6
69.8  2.690356e+6
69.9  2.682792e+6
70  2.675257e+6
70.1  2.667504e+6
70.2  2.659779e+6
70.3  2.652084e+6
70.4  2.644418e+6
70.5  2.636781e+6
70.6  2.629172e+6
70.7  2.621591e+6
70.8  2.614039e+6
70.9  2.606516e+6
71  2.599020e+6
71.1  2.591481e+6
71.2  2.583970e+6
71.3  2.576488e+6
71.4  2.569034e+6
71.5  2.561607e+6
71.6  2.554208e+6
71.7  2.546837e+6
71.8  2.539494e+6
71.9  2.532178e+6
72  2.524888e+6
72.1  2.518189e+6
72.2  2.510879e+6
72.3  2.503594e+6
72.4  2.496337e+6
72.5  2.489106e+6
72.6  2.481902e+6
72.7  2.474723e+6
72.8  2.467571e+6
72.9  2.460445e+6
73  2.453345e+6
73.1  2.446144e+6
73.2  2.438970e+6
73.3  2.431822e+6
73.4  2.424700e+6
73.5  2.417604e+6
73.6  2.410534e+6
73.7  2.403490e+6
73.8  2.396472e+6
73.9  2.389479e+6
74  2.382512e+6
74.1  2.375587e+6
74.2  2.368688e+6
74.3  2.361813e+6
74.4  2.355569e+6
74.5  2.348557e+6
74.6  2.341569e+6
74.7  2.334607e+6
74.8  2.327671e+6
74.9  2.320759e+6
75  2.313872e+6
75.1  2.306868e+6
75.2  2.299889e+6
75.3  2.292935e+6
75.4  2.286007e+6
75.5  2.279104e+6
75.6  2.272226e+6
75.7  2.265373e+6
75.8  2.258545e+6
75.9  2.251741e+6
76  2.244962e+6
76.1  2.238254e+6
76.2  2.231569e+6
76.3  2.224909e+6
76.4  2.218273e+6
76.5  2.211660e+6
76.6  2.205070e+6
76.7  2.198505e+6
76.8  2.192535e+6
76.9  2.185851e+6
77  2.179192e+6
77.1  2.172550e+6
77.2  2.165932e+6
77.3  2.159338e+6
77.4  2.152767e+6
77.5  2.146220e+6
77.6  2.139696e+6
77.7  2.133194e+6
77.8  2.126716e+6
77.9  2.120261e+6
78  2.113829e+6
78.1  2.107337e+6
78.2  2.100868e+6
78.3  2.094422e+6
78.4  2.087999e+6
78.5  2.081599e+6
78.6  2.075222e+6
78.7  2.068867e+6
78.8  2.062534e+6
78.9  2.056224e+6
79  2.049936e+6
79.1  2.043640e+6
79.2  2.037367e+6
79.3  2.031489e+6
79.4  2.025093e+6
79.5  2.018718e+6
79.6  2.012367e+6
79.7  2.006037e+6
79.8  1.999730e+6
79.9  1.993446e+6
80  1.987183e+6
80.1  1.980905e+6
80.2  1.974649e+6
80.3  1.968414e+6
80.4  1.962202e+6
80.5  1.956012e+6
80.6  1.949843e+6
80.7  1.943696e+6
80.8  1.937571e+6
80.9  1.931467e+6
81  1.925384e+6
81.1  1.919410e+6
81.2  1.913456e+6
81.3  1.907523e+6
81.4  1.901610e+6
81.5  1.895717e+6
81.6  1.890360e+6
81.7  1.884345e+6
81.8  1.878351e+6
81.9  1.872378e+6
82  1.866426e+6
82.1  1.860393e+6
82.2  1.854381e+6
82.3  1.848391e+6
82.4  1.842421e+6
82.5  1.836472e+6
82.6  1.830543e+6
82.7  1.824635e+6
82.8  1.818748e+6
82.9  1.812881e+6
83  1.807034e+6
83.1  1.801176e+6
83.2  1.795338e+6
83.3  1.789520e+6
83.4  1.783722e+6
83.5  1.777944e+6
83.6  1.772187e+6
83.7  1.766449e+6
83.8  1.760730e+6
83.9  1.755031e+6
84  1.749844e+6
84.1  1.743996e+6
84.2  1.738168e+6
84.3  1.732360e+6
84.4  1.726573e+6
84.5  1.720805e+6
84.6  1.715057e+6
84.7  1.709330e+6
84.8  1.703621e+6
84.9  1.697933e+6
85  1.692264e+6
85.1  1.686624e+6
85.2  1.681003e+6
85.3  1.675401e+6
85.4  1.669818e+6
85.5  1.664254e+6
85.6  1.658710e+6
85.7  1.653184e+6
85.8  1.647677e+6
85.9  1.642189e+6
86  1.636719e+6
86.1  1.631292e+6
86.2  1.625883e+6
86.3  1.620493e+6
86.4  1.615589e+6
86.5  1.610067e+6
86.6  1.604562e+6
86.7  1.599077e+6
86.8  1.593610e+6
86.9  1.588161e+6
87  1.582731e+6
87.1  1.577266e+6
87.2  1.571820e+6
87.3  1.566392e+6
87.4  1.560983e+6
87.5  1.555592e+6
87.6  1.550220e+6
87.7  1.544865e+6
87.8  1.539529e+6
87.9  1.534211e+6
88  1.528910e+6
88.1  1.523587e+6
88.2  1.518281e+6
88.3  1.512994e+6
88.4  1.507724e+6
88.5  1.502473e+6
88.6  1.497239e+6
88.7  1.492022e+6
88.8  1.487273e+6
88.9  1.481920e+6
89  1.476584e+6
89.1  1.471318e+6
89.2  1.466070e+6
89.3  1.460839e+6
89.4  1.455626e+6
89.5  1.450430e+6
89.6  1.445252e+6
89.7  1.440091e+6
89.8  1.434947e+6
89.9  1.429820e+6
90  1.424710e+6
90.1  1.419558e+6
90.2  1.414424e+6
90.3  1.409307e+6
90.4  1.404207e+6
90.5  1.399124e+6
90.6  1.394058e+6
90.7  1.389009e+6
90.8  1.383977e+6
90.9  1.378962e+6
91  1.373963e+6
91.1  1.369017e+6
91.2  1.364520e+6
91.3  1.359433e+6
91.4  1.354363e+6
91.5  1.349310e+6
91.6  1.344274e+6
91.7  1.339255e+6
91.8  1.334252e+6
91.9  1.329266e+6
92  1.324296e+6
92.1  1.319304e+6
92.2  1.314328e+6
92.3  1.309369e+6
92.4  1.304426e+6
92.5  1.299500e+6
92.6  1.294590e+6
92.7  1.289697e+6
92.8  1.284819e+6
92.9  1.279958e+6
93  1.275113e+6
93.1  1.270272e+6
93.2  1.265448e+6
93.3  1.260640e+6
93.4  1.255847e+6
93.5  1.251070e+6
93.6  1.246310e+6
93.7  1.241805e+6
93.8  1.236900e+6
93.9  1.232012e+6
94  1.227140e+6
94.1  1.222327e+6
94.2  1.217530e+6
94.3  1.212749e+6
94.4  1.207983e+6
94.5  1.203233e+6
94.6  1.198498e+6
94.7  1.193778e+6
94.8  1.189074e+6
94.9  1.184386e+6
95  1.179712e+6
95.1  1.175006e+6
95.2  1.170315e+6
95.3  1.165639e+6
95.4  1.160979e+6
95.5  1.156334e+6
95.6  1.151704e+6
95.7  1.147089e+6
95.8  1.142490e+6
95.9  1.137906e+6
96  1.133738e+6
96.1  1.128986e+6
96.2  1.124249e+6
96.3  1.119528e+6
96.4  1.114822e+6
96.5  1.110132e+6
96.6  1.105458e+6
96.7  1.100799e+6
96.8  1.096155e+6
96.9  1.091526e+6
97  1.086913e+6
97.1  1.082337e+6
97.2  1.077777e+6
97.3  1.073231e+6
97.4  1.068701e+6
97.5  1.064185e+6
97.6  1.059683e+6
97.7  1.055196e+6
97.8  1.050724e+6
97.9  1.046266e+6
98  1.041822e+6
98.1  1.037365e+6
98.2  1.032923e+6
98.3  1.028495e+6
98.4  1.024474e+6
98.5  1.019868e+6
98.6  1.015278e+6
98.7  1.010703e+6
98.8  1.006143e+6
98.9  1.001598e+6
99  997067.9
99.1  992591.2
99.2  988129
99.3  983681.1
99.4  979247.4
99.5  974828
99.6  970422.8
99.7  966031.7
99.8  961654.6
99.9  957291.6
100  952942.5
100.1  948579.1
100.2  944229.8
100.3  939894.5
100.4  935573.2
100.5  931265.8
100.6  926972.3
100.7  922692.5
100.8  918809.9
100.9  914345.9
101  909896.3
101.1  905458.6
101.2  901035.3
101.3  896626.3
101.4  892231.5
101.5  887851
101.6  883484.5
101.7  879132.2
101.8  874793.9
101.9  870469.5
102  866159
102.1  861847.6
102.2  857550.3
102.3  853266.8
102.4  848997.1
102.5  844741.3
102.6  840499.2
102.7  836270.7
102.8  832055.9
102.9  827854.6
103  823666.9
103.1  819514.6
103.2  815753.2
103.3  811390.5
103.4  807041.8
103.5  802707
103.6  798386.1
103.7  794078.9
103.8  789785.6
103.9  785505.9
104  781239.8
104.1  776966.5
104.2  772707
104.3  768461.2
104.4  764229
104.5  760010.4
104.6  755805.3
104.7  751613.7
104.8  747435.6
104.9  743270.8
105  739119.4
105.1  734986.7
105.2  730867.2
105.3  726760.8
105.4  722667.5
105.5  718587.2
105.6  714894.8
105.7  710579.6
105.8  706278.3
105.9  701990.8
106  697717
106.1  693448.6
106.2  689193.8
106.3  684952.8
106.4  680725.4
106.5  676511.5
106.6  672311.2
106.7  668124.3
106.8  663950.8
106.9  659790.7
107  655643.8
107.1  651506.6
107.2  647382.7
107.3  643271.9
107.4  639174.2
107.5  635089.7
107.6  631018.2
107.7  626959.6
107.8  622914
107.9  618881.3
108  615236.6
108.1  610939
108.2  606655.3
108.3  602385.3
108.4  598128.9
108.5  593886.1
108.6  589657
108.7  585441.3
108.8  581239
108.9  577050.2
109  572874.7
109.1  568717.2
109.2  564572.9
109.3  560441.7
109.4  556323.6
109.5  552218.5
109.6  548126.5
109.7  544047.4
109.8  539981.1
109.9  535927.8
110  531887.2
110.1  527860.8
110.2  523847.1
110.3  519846
110.4  515857.4
110.5  511929
110.6  507635.6
110.7  503355.8
110.8  499089.5
110.9  494836.8
111  490597.6
111.1  486364.6
111.2  482145
111.3  477938.9
111.4  473746.2
111.5  469566.9
111.6  465400.8
111.7  461247.9
111.8  457108.3
111.9  452981.7
112  448868.2
112.1  444771.7
112.2  440688.1
112.3  436617.4
112.4  432559.5
112.5  428514.5
112.6  424482.1
112.7  420462.4
112.8  416869.6
112.9  412216.2
113  407577.6
113.1  402941.9
113.2  398321.1
113.3  393715.2
113.4  389124.2
113.5  384548
113.6  379986.5
113.7  375439.8
113.8  370907.7
113.9  366390.1
114  361887.1
114.1  357409.2
114.2  352945.4
114.3  348495.7
114.4  344060
114.5  339638.3
114.6  335230.6
114.7  330836.7
114.8  326456.7
114.9  322090.5
115  317738
115.1  313395.4
115.2  309463.5
115.3  304980.1
115.4  300511.1
115.5  296056.3
115.6  291615.7
115.7  287189.3
115.8  282776.9
115.9  278378.6
116  273994.2
116.1  269623.8
116.2  265267.3
116.3  260924.5
116.4  256595.6
116.5  252280.4
116.6  247978.8
116.7  243690.9
116.8  239416.5
116.9  235155.7
117  230908.3
117.1  226672.6
117.2  222450.4
117.3  218241.6
117.4  214046.2
117.5  209864
117.6  206508.8
117.7  197579.9
117.8  188680.1
117.9  179809.1
118  170966.9
118.1  162154.2
118.2  153370
118.3  144614.1
118.4  135886.5
118.5  127187
118.6  118515.5
118.7  109871.9
118.8  101256.2
118.9  92668.19
119  84107.78
119.1  75575.8
119.2  67071.02
119.3  58593.33
119.4  50142.65
119.5  41718.87
119.6  33321.89
119.7  24951.61
119.8  16607.94
119.9  8290.764
120  0
