**** COMMENT ****

**** INPUTS ****
kVp [kV] hvMIN [keV] Dhv [keV]
140  14  1
Angle [deg.]
30
t_AIR t_BE t_AL t_CU t_SN t_W t_Ta t_Ti t_C t_Wa [mm]
1000  0.8  1.2  0.11  0  0  0  0  0  0
Nf P
0.68  0.33
****CALCULATED OUTPUTS ****
Brem[uGy/mAs@1m] Char[uGy/mAs@1m]
118.6646  12.9766
HVL1[cm AL] HVL2[cm AL] HVL1[cmCu] HVL2[cmCu] MeanE[keV] EffEAl[keV] EffECu[keV]
0.6257377  0.8850336  0.0298496  0.0632057  62.40764  47.04869  50.13098
**** CALCULATED SPECTRUM ****
Energy[keV]  N[keV cm^2 mAs]^-1 @ 1 meter
14  72.27031
15  637.6021
16  3517.246
17  13297.05
18  38399.27
19  90619.01
20  182269.2
21  321747.4
22  518142.2
23  766343.7
24  1.065992e+6
25  1.396739e+6
26  1.760243e+6
27  2.125727e+6
28  2.519249e+6
29  2.875400e+6
30  3.222564e+6
31  3.545738e+6
32  3.842701e+6
33  4.109803e+6
34  4.353684e+6
35  4.557776e+6
36  4.729840e+6
37  4.876758e+6
38  4.997082e+6
39  5.086619e+6
40  5.158256e+6
41  5.204755e+6
42  5.236249e+6
43  5.249179e+6
44  5.248494e+6
45  5.230641e+6
46  5.203837e+6
47  5.164865e+6
48  5.120340e+6
49  5.065340e+6
50  5.004238e+6
51  4.938660e+6
52  4.862300e+6
53  4.788750e+6
54  4.711039e+6
55  4.633330e+6
56  4.547075e+6
57  4.463584e+6
58  1.696750e+7
59  2.634098e+7
60  4.209652e+6
61  4.123039e+6
62  4.036808e+6
63  3.949589e+6
64  3.867100e+6
65  3.780506e+6
66  3.697725e+6
67  1.114677e+7
68  3.532445e+6
69  5.429942e+6
70  3.096247e+6
71  3.031881e+6
72  2.970075e+6
73  2.911064e+6
74  2.849632e+6
75  2.790057e+6
76  2.730115e+6
77  2.670523e+6
78  2.612489e+6
79  2.554655e+6
80  2.496911e+6
81  2.440190e+6
82  2.385187e+6
83  2.329713e+6
84  2.275618e+6
85  2.221147e+6
86  2.168168e+6
87  2.117107e+6
88  2.065000e+6
89  2.013846e+6
90  1.964694e+6
91  1.914746e+6
92  1.866702e+6
93  1.819029e+6
94  1.771595e+6
95  1.725968e+6
96  1.680194e+6
97  1.634880e+6
98  1.591563e+6
99  1.547347e+6
100  1.504779e+6
101  1.462956e+6
102  1.420877e+6
103  1.379695e+6
104  1.339874e+6
105  1.299534e+6
106  1.260365e+6
107  1.221699e+6
108  1.183050e+6
109  1.145529e+6
110  1.108364e+6
111  1.071643e+6
112  1.035656e+6
113  999635.8
114  963979.9
115  929577.1
116  894428.7
117  860137.9
118  826332.1
119  792295.7
120  759181.5
121  725879.4
122  692651.5
123  660278.4
124  627292.7
125  594691.2
126  562746.9
127  529829.7
128  497558.3
129  465736.3
130  432558.9
131  400065.2
132  367004.8
133  331208.6
134  296472.4
135  262159.1
136  228031.6
137  194704.5
138  133417
139  65790.95
140  0
