**** COMMENT ****

**** INPUTS ****
kVp [kV] hvMIN [keV] Dhv [keV]
200  20  1
Angle [deg.]
30
t_AIR t_BE t_AL t_CU t_SN t_W t_Ta t_Ti t_C t_Wa [mm]
1000  0.8  1.2  0.11  0  0  0  0  0  0
Nf P
0.68  0.33
****CALCULATED OUTPUTS ****
Brem[uGy/mAs@1m] Char[uGy/mAs@1m]
226.7719  33.48127
HVL1[cm AL] HVL2[cm AL] HVL1[cmCu] HVL2[cmCu] MeanE[keV] EffEAl[keV] EffECu[keV]
0.8278604  1.132425  0.0507954  0.1190361  73.63578  55.61225  60.95747
**** CALCULATED SPECTRUM ****
Energy[keV]  N[keV cm^2 mAs]^-1 @ 1 meter
20  192462.8
21  349013.9
22  576349.8
23  872484.4
24  1.241540e+6
25  1.662139e+6
26  2.135889e+6
27  2.627614e+6
28  3.167821e+6
29  3.675247e+6
30  4.180688e+6
31  4.663267e+6
32  5.119653e+6
33  5.545384e+6
34  5.941909e+6
35  6.288837e+6
36  6.589431e+6
37  6.860540e+6
38  7.094405e+6
39  7.282842e+6
40  7.443103e+6
41  7.573028e+6
42  7.674527e+6
43  7.747250e+6
44  7.800576e+6
45  7.824086e+6
46  7.834458e+6
47  7.823588e+6
48  7.800888e+6
49  7.765126e+6
50  7.714262e+6
51  7.654101e+6
52  7.578535e+6
53  7.505061e+6
54  7.420785e+6
55  7.337535e+6
56  7.240574e+6
57  7.141819e+6
58  3.951910e+7
59  6.382219e+7
60  6.837629e+6
61  6.731188e+6
62  6.621444e+6
63  6.511187e+6
64  6.407378e+6
65  6.294929e+6
66  6.188496e+6
67  2.551282e+7
68  5.971476e+6
69  1.096823e+7
70  4.939933e+6
71  4.873028e+6
72  4.806588e+6
73  4.746755e+6
74  4.681177e+6
75  4.617159e+6
76  4.550556e+6
77  4.484884e+6
78  4.419648e+6
79  4.352906e+6
80  4.287105e+6
81  4.221416e+6
82  4.156886e+6
83  4.091563e+6
84  4.026598e+6
85  3.962081e+6
86  3.897914e+6
87  3.835711e+6
88  3.773160e+6
89  3.710647e+6
90  3.649964e+6
91  3.588654e+6
92  3.529498e+6
93  3.470229e+6
94  3.411110e+6
95  3.354372e+6
96  3.297026e+6
97  3.240416e+6
98  3.184898e+6
99  3.129937e+6
100  3.076884e+6
101  3.023662e+6
102  2.971080e+6
103  2.918935e+6
104  2.868835e+6
105  2.818559e+6
106  2.768813e+6
107  2.719933e+6
108  2.671804e+6
109  2.624605e+6
110  2.577892e+6
111  2.532343e+6
112  2.487708e+6
113  2.442731e+6
114  2.398084e+6
115  2.355167e+6
116  2.312945e+6
117  2.271055e+6
118  2.229196e+6
119  2.188621e+6
120  2.148999e+6
121  2.109096e+6
122  2.070261e+6
123  2.031997e+6
124  1.994202e+6
125  1.957181e+6
126  1.919924e+6
127  1.883864e+6
128  1.848854e+6
129  1.813284e+6
130  1.778787e+6
131  1.744013e+6
132  1.711434e+6
133  1.677684e+6
134  1.644877e+6
135  1.612430e+6
136  1.580982e+6
137  1.549268e+6
138  1.518604e+6
139  1.487685e+6
140  1.458314e+6
141  1.428330e+6
142  1.398841e+6
143  1.369845e+6
144  1.341908e+6
145  1.313395e+6
146  1.285084e+6
147  1.258035e+6
148  1.230862e+6
149  1.204101e+6
150  1.177253e+6
151  1.151300e+6
152  1.125511e+6
153  1.099863e+6
154  1.074676e+6
155  1.049515e+6
156  1.024989e+6
157  1.000729e+6
158  976386.3
159  952716
160  929110
161  905449.1
162  882578.8
163  859545.2
164  837045
165  814541.5
166  792121.7
167  769941.9
168  748508.3
169  726420.7
170  704647.4
171  683546.6
172  662455.1
173  641099.6
174  619981
175  599128.2
176  578701.9
177  557940.6
178  537054.9
179  516618.6
180  496525.4
181  475907.4
182  455343.8
183  435116.7
184  415405.4
185  394605.7
186  374184.9
187  354010.7
188  334292.1
189  312004.5
190  290015.6
191  268408.7
192  247328.6
193  225992.9
194  204915.5
195  184260
196  164023.9
197  122051.1
198  80569.07
199  39895.12
200  0
