**** COMMENT ****

**** INPUTS ****
kVp [kV] hvMIN [keV] Dhv [keV]
300  30  1
Angle [deg.]
30
t_AIR t_BE t_AL t_CU t_SN t_W t_Ta t_Ti t_C t_Wa [mm]
1000  0.8  1.2  0.11  0  0  0  0  0  0
Nf P
0.68  0.33
****CALCULATED OUTPUTS ****
Brem[uGy/mAs@1m] Char[uGy/mAs@1m]
466.967  80.42437
HVL1[cm AL] HVL2[cm AL] HVL1[cmCu] HVL2[cmCu] MeanE[keV] EffEAl[keV] EffECu[keV]
1.156488  1.438643  0.1017139  0.2522598  90.07222  72.33885  80.10582
**** CALCULATED SPECTRUM ****
Energy[keV]  N[keV cm^2 mAs]^-1 @ 1 meter
30  5.131362e+6
31  5.837835e+6
32  6.518757e+6
33  7.178266e+6
34  7.820949e+6
35  8.403321e+6
36  8.922308e+6
37  9.419286e+6
38  9.865697e+6
39  1.024795e+7
40  1.058644e+7
41  1.088826e+7
42  1.114899e+7
43  1.136770e+7
44  1.154877e+7
45  1.167971e+7
46  1.179277e+7
47  1.186842e+7
48  1.192168e+7
49  1.195460e+7
50  1.195735e+7
51  1.194167e+7
52  1.189762e+7
53  1.185203e+7
54  1.178881e+7
55  1.172666e+7
56  1.162876e+7
57  1.153064e+7
58  8.943789e+7
59  1.479566e+8
60  1.120729e+7
61  1.108543e+7
62  1.095562e+7
63  1.081992e+7
64  1.069344e+7
65  1.054954e+7
66  1.041721e+7
67  5.695779e+7
68  1.013526e+7
69  2.224797e+7
70  7.474508e+6
71  7.429255e+6
72  7.374396e+6
73  7.340453e+6
74  7.289905e+6
75  7.239999e+6
76  7.183252e+6
77  7.125586e+6
78  7.069374e+6
79  7.007518e+6
80  6.944415e+6
81  6.879862e+6
82  6.815869e+6
83  6.748653e+6
84  6.681062e+6
85  6.612126e+6
86  6.541707e+6
87  6.473648e+6
88  6.403127e+6
89  6.331233e+6
90  6.262877e+6
91  6.191939e+6
92  6.121484e+6
93  6.050469e+6
94  5.979157e+6
95  5.911134e+6
96  5.840269e+6
97  5.770716e+6
98  5.701307e+6
99  5.632052e+6
100  5.564538e+6
101  5.496433e+6
102  5.429759e+6
103  5.362367e+6
104  5.296876e+6
105  5.230943e+6
106  5.165404e+6
107  5.100702e+6
108  5.036643e+6
109  4.974386e+6
110  4.911520e+6
111  4.850135e+6
112  4.788873e+6
113  4.727914e+6
114  4.666847e+6
115  4.608452e+6
116  4.549900e+6
117  4.492105e+6
118  4.433779e+6
119  4.377313e+6
120  4.322803e+6
121  4.266324e+6
122  4.212130e+6
123  4.157727e+6
124  4.104321e+6
125  4.052138e+6
126  3.999556e+6
127  3.948812e+6
128  3.898990e+6
129  3.847499e+6
130  3.799008e+6
131  3.748611e+6
132  3.702934e+6
133  3.654341e+6
134  3.607278e+6
135  3.560357e+6
136  3.514391e+6
137  3.468755e+6
138  3.425470e+6
139  3.380287e+6
140  3.338097e+6
141  3.294427e+6
142  3.251881e+6
143  3.210398e+6
144  3.170184e+6
145  3.129004e+6
146  3.087816e+6
147  3.049005e+6
148  3.008703e+6
149  2.970575e+6
150  2.932143e+6
151  2.894634e+6
152  2.857024e+6
153  2.820467e+6
154  2.784464e+6
155  2.747839e+6
156  2.712687e+6
157  2.678386e+6
158  2.643387e+6
159  2.609498e+6
160  2.575074e+6
161  2.541468e+6
162  2.509897e+6
163  2.476949e+6
164  2.444486e+6
165  2.413382e+6
166  2.382297e+6
167  2.351124e+6
168  2.321690e+6
169  2.290638e+6
170  2.260731e+6
171  2.232124e+6
172  2.202243e+6
173  2.173974e+6
174  2.145710e+6
175  2.117633e+6
176  2.089438e+6
177  2.063118e+6
178  2.035468e+6
179  2.008850e+6
180  1.982038e+6
181  1.956682e+6
182  1.930708e+6
183  1.904895e+6
184  1.880025e+6
185  1.854975e+6
186  1.830916e+6
187  1.806281e+6
188  1.782187e+6
189  1.758102e+6
190  1.734531e+6
191  1.711099e+6
192  1.688806e+6
193  1.665826e+6
194  1.642982e+6
195  1.620666e+6
196  1.598998e+6
197  1.577357e+6
198  1.555642e+6
199  1.534097e+6
200  1.513446e+6
201  1.492376e+6
202  1.471606e+6
203  1.451162e+6
204  1.431553e+6
205  1.411448e+6
206  1.391419e+6
207  1.371536e+6
208  1.352505e+6
209  1.333659e+6
210  1.314587e+6
211  1.295610e+6
212  1.276767e+6
213  1.258502e+6
214  1.240171e+6
215  1.222421e+6
216  1.204466e+6
217  1.186962e+6
218  1.169231e+6
219  1.151629e+6
220  1.134487e+6
221  1.117525e+6
222  1.101064e+6
223  1.084039e+6
224  1.067285e+6
225  1.050884e+6
226  1.034474e+6
227  1.018865e+6
228  1.002884e+6
229  986878.5
230  970914.4
231  955397.2
232  940158.9
233  924931.7
234  909927.2
235  894721.6
236  879696.1
237  865129
238  850387.5
239  835922.4
240  821685.8
241  807187.9
242  793144.1
243  778930.4
244  764960.7
245  751114.3
246  737504.1
247  723649.8
248  710253.5
249  696628.4
250  683180.3
251  669972.2
252  656868
253  643725.6
254  630643.6
255  617560.1
256  604704.6
257  591942.5
258  579355.4
259  566613.7
260  553789.9
261  541206.4
262  528838.5
263  516506.5
264  504371.9
265  491882.4
266  479400.2
267  467180.1
268  455012.3
269  442999.2
270  431251.7
271  418951.5
272  406699.5
273  394642.4
274  382745
275  370951.4
276  359306.8
277  347063.2
278  335043.1
279  323064.6
280  311268.5
281  299626.1
282  288089.7
283  275010.5
284  262125.9
285  249526.2
286  236964.1
287  224580.9
288  212359
289  199877.5
290  187624.9
291  175603.5
292  163654.3
293  151857.2
294  140242.2
295  115974.9
296  92176.27
297  68684.39
298  45512.96
299  22609.95
300  0
