**** COMMENT ****

**** INPUTS ****
kVp [kV] hvMIN [keV] Dhv [keV]
40  4  0.1
Angle [deg.]
30
t_AIR t_BE t_AL t_CU t_SN t_W t_Ta t_Ti t_C t_Wa [mm]
1000  0.8  1.2  0  0  0  0  0  0  0
Nf P
0.68  0.33
****CALCULATED OUTPUTS ****
Brem[uGy/mAs@1m] Char[uGy/mAs@1m]
46.70028  0
HVL1[cm AL] HVL2[cm AL] HVL1[cmCu] HVL2[cmCu] MeanE[keV] EffEAl[keV] EffECu[keV]
0.088778  0.122632  0.0027546  0.0037743  25.66164  21.26562  21.42109
**** CALCULATED SPECTRUM ****
Energy[keV]  N[keV cm^2 mAs]^-1 @ 1 meter
4  1.391937e-48
4.1  5.239359e-46
4.2  1.972308e-43
4.3  7.430358e-41
4.4  2.807462e-38
4.5  1.062705e-35
4.6  4.030114e-33
4.7  1.531233e-30
4.8  5.829076e-28
4.9  2.225759e-25
5  8.503699e-23
5.1  1.334391e-21
5.2  2.097904e-20
5.3  3.301212e-19
5.4  5.199274e-18
5.5  8.195770e-17
5.6  1.293039e-15
5.7  2.043594e-14
5.8  3.228565e-13
5.9  5.100769e-12
6  8.072765e-11
6.1  3.387983e-10
6.2  1.422598e-9
6.3  5.976419e-9
6.4  2.511964e-8
6.5  1.057132e-7
6.6  4.446057e-7
6.7  1.869384e-6
6.8  7.870123e-6
6.9  0.0000331
7  0.0001397
7.1  0.0003193
7.2  0.000731
7.3  0.0016718
7.4  0.0038245
7.5  0.0087459
7.6  0.0200215
7.7  0.0458479
7.8  0.1050194
7.9  0.2406265
8  0.5514926
8.1  0.9111145
8.2  1.504245
8.3  2.48249
8.4  4.100789
8.5  6.775575
8.6  11.19751
8.7  18.50937
8.8  30.60232
8.9  50.63407
9  83.72576
9.1  115.3397
9.2  159.027
9.3  219.3016
9.4  302.4756
9.5  417.2677
9.6  575.7227
9.7  794.8743
9.8  1096.777
9.9  1512.729
10  2088.085
10.1  2532.52
10.2  3072.529
10.3  3728.852
10.4  4526.768
10.5  5499.528
10.6  6678.638
10.7  8108.792
10.8  9853.775
10.9  11977.73
11  14563.65
11.1  16758.95
11.2  19300.03
11.3  22209.71
11.4  25561.44
11.5  29408.79
11.6  33857.51
11.7  38984.1
11.8  44892.49
11.9  51702.63
12  59552.99
12.1  65877.07
12.2  72837.13
12.3  80504.34
12.4  89032.48
12.5  98473.87
12.6  108927.2
12.7  120501.8
12.8  133319
12.9  147563.6
13  163252.8
13.1  175893.6
13.2  189624
13.3  204445.8
13.4  220446.8
13.5  237722.2
13.6  256516.6
13.7  276605.4
13.8  298294
13.9  321572.2
14  346863.7
14.1  366216.9
14.2  386681.3
14.3  408321.9
14.4  431207.6
14.5  455555.8
14.6  481055.8
14.7  507803.8
14.8  536334.2
14.9  566509.5
15  598426.3
15.1  622925.3
15.2  648472.7
15.3  675316.4
15.4  702615
15.5  731443
15.6  761504.6
15.7  792853.9
15.8  825547.3
15.9  859643.9
16  895673.7
16.1  921915.8
16.2  948984.6
16.3  976496.7
16.4  1.005334e+6
16.5  1.035084e+6
16.6  1.065777e+6
16.7  1.097442e+6
16.8  1.130112e+6
16.9  1.164163e+6
17  1.198689e+6
17.1  1.223327e+6
17.2  1.249117e+6
17.3  1.275519e+6
17.4  1.302548e+6
17.5  1.330218e+6
17.6  1.358547e+6
17.7  1.387944e+6
17.8  1.416671e+6
17.9  1.446798e+6
18  1.477638e+6
18.1  1.500125e+6
18.2  1.523028e+6
18.3  1.546353e+6
18.4  1.570110e+6
18.5  1.594746e+6
18.6  1.619023e+6
18.7  1.643054e+6
18.8  1.668292e+6
18.9  1.693992e+6
19  1.720164e+6
19.1  1.738471e+6
19.2  1.757050e+6
19.3  1.776375e+6
19.4  1.795078e+6
19.5  1.813292e+6
19.6  1.832618e+6
19.7  1.852227e+6
19.8  1.872120e+6
19.9  1.892302e+6
20  1.912777e+6
20.1  1.926883e+6
20.2  1.940186e+6
20.3  1.952829e+6
20.4  1.966551e+6
20.5  1.980444e+6
20.6  1.994510e+6
20.7  2.008748e+6
20.8  2.023162e+6
20.9  2.038280e+6
21  2.052541e+6
21.1  2.059990e+6
21.2  2.068520e+6
21.3  2.077158e+6
21.4  2.085902e+6
21.5  2.094754e+6
21.6  2.103714e+6
21.7  2.113323e+6
21.8  2.120940e+6
21.9  2.129774e+6
22  2.138712e+6
22.1  2.142919e+6
22.2  2.147202e+6
22.3  2.151560e+6
22.4  2.155993e+6
22.5  2.161067e+6
22.6  2.165100e+6
22.7  2.168244e+6
22.8  2.172520e+6
22.9  2.176867e+6
23  2.181285e+6
23.1  2.181685e+6
23.2  2.182146e+6
23.3  2.183204e+6
23.4  2.183178e+6
23.5  2.182228e+6
23.6  2.182423e+6
23.7  2.182675e+6
23.8  2.182983e+6
23.9  2.183347e+6
24  2.183766e+6
24.1  2.180876e+6
24.2  2.176888e+6
24.3  2.171952e+6
24.4  2.168191e+6
24.5  2.164487e+6
24.6  2.160841e+6
24.7  2.157249e+6
24.8  2.153713e+6
24.9  2.150720e+6
25  2.146607e+6
25.1  2.139771e+6
25.2  2.134126e+6
25.3  2.128540e+6
25.4  2.123012e+6
25.5  2.117541e+6
25.6  2.112126e+6
25.7  2.107302e+6
25.8  2.101356e+6
25.9  2.094435e+6
26  2.088710e+6
26.1  2.080801e+6
26.2  2.072959e+6
26.3  2.065182e+6
26.4  2.057470e+6
26.5  2.050321e+6
26.6  2.040908e+6
26.7  2.032823e+6
26.8  2.024799e+6
26.9  2.016837e+6
27  2.008935e+6
27.1  1.999538e+6
27.2  1.990214e+6
27.3  1.981455e+6
27.4  1.971591e+6
27.5  1.960755e+6
27.6  1.951149e+6
27.7  1.941611e+6
27.8  1.932141e+6
27.9  1.922739e+6
28  1.913402e+6
28.1  1.903159e+6
28.2  1.891820e+6
28.3  1.879514e+6
28.4  1.868454e+6
28.5  1.857472e+6
28.6  1.846568e+6
28.7  1.835740e+6
28.8  1.824987e+6
28.9  1.814739e+6
29  1.803393e+6
29.1  1.789804e+6
29.2  1.777477e+6
29.3  1.765239e+6
29.4  1.753089e+6
29.5  1.741027e+6
29.6  1.729051e+6
29.7  1.717556e+6
29.8  1.704978e+6
29.9  1.691433e+6
30  1.679146e+6
30.1  1.666298e+6
30.2  1.653544e+6
30.3  1.640881e+6
30.4  1.628308e+6
30.5  1.616198e+6
30.6  1.603014e+6
30.7  1.588867e+6
30.8  1.575985e+6
30.9  1.563192e+6
31  1.550486e+6
31.1  1.537379e+6
31.2  1.524365e+6
31.3  1.511789e+6
31.4  1.498148e+6
31.5  1.483541e+6
31.6  1.470210e+6
31.7  1.456971e+6
31.8  1.443824e+6
31.9  1.430767e+6
32  1.417800e+6
32.1  1.404667e+6
32.2  1.389281e+6
32.3  1.375314e+6
32.4  1.361447e+6
32.5  1.347679e+6
32.6  1.334009e+6
32.7  1.320436e+6
32.8  1.308128e+6
32.9  1.293779e+6
33  1.279530e+6
33.1  1.263878e+6
33.2  1.249542e+6
33.3  1.235310e+6
33.4  1.221182e+6
33.5  1.207157e+6
33.6  1.193233e+6
33.7  1.179582e+6
33.8  1.163628e+6
33.9  1.149137e+6
34  1.134749e+6
34.1  1.120176e+6
34.2  1.105712e+6
34.3  1.091354e+6
34.4  1.077102e+6
34.5  1.063027e+6
34.6  1.047871e+6
34.7  1.031692e+6
34.8  1.016883e+6
34.9  1.002181e+6
35  987584.8
35.1  972892.5
35.2  958309.9
35.3  943816.4
35.4  928223.3
35.5  911575.3
35.6  896343.8
35.7  881224.3
35.8  866215.4
35.9  851315.8
36  836524.3
36.1  821551.6
36.2  805451.3
36.3  788254.3
36.4  772531.4
36.5  756925.5
36.6  741435.1
36.7  726059.2
36.8  710796.3
36.9  695374.5
37  678782.1
37.1  660824.4
37.2  644518.6
37.3  628336.3
37.4  612276.1
37.5  596336.7
37.6  580516.7
37.7  563280.6
37.8  544735.2
37.9  524976.6
38  506859.4
38.1  488794.9
38.2  470869.6
38.3  453081.8
38.4  435430.1
38.5  418426.2
38.6  400141.2
38.7  379150.8
38.8  361466
38.9  343915.8
39  326498.8
39.1  309192.4
39.2  292018.8
39.3  257123.5
39.4  219540.4
39.5  182246.2
39.6  145237.6
39.7  108511.7
39.8  72065.41
39.9  35895.84
40  0
