**** COMMENT ****

**** INPUTS ****
kVp [kV] hvMIN [keV] Dhv [keV]
60  6  0.1
Angle [deg.]
30
t_AIR t_BE t_AL t_CU t_SN t_W t_Ta t_Ti t_C t_Wa [mm]
1000  0.8  1.2  0  0  0  0  0  0  0
Nf P
0.68  0.33
****CALCULATED OUTPUTS ****
Brem[uGy/mAs@1m] Char[uGy/mAs@1m]
94.13938  0
HVL1[cm AL] HVL2[cm AL] HVL1[cmCu] HVL2[cmCu] MeanE[keV] EffEAl[keV] EffECu[keV]
0.121984  0.1910944  0.0038189  0.00616  32.36835  23.7902  24.0649
**** CALCULATED SPECTRUM ****
Energy[keV]  N[keV cm^2 mAs]^-1 @ 1 meter
6  8.321483e-11
6.1  3.526458e-10
6.2  1.492788e-9
6.3  6.323725e-9
6.4  2.680787e-8
6.5  1.137276e-7
6.6  4.828184e-7
6.7  2.051240e-6
6.8  8.720960e-6
6.9  0.0000371
7  0.0001579
7.1  0.0003634
7.2  0.0008366
7.3  0.0019296
7.4  0.0044455
7.5  0.0102459
7.6  0.0236245
7.7  0.0544943
7.8  0.1257518
7.9  0.2903025
8  0.6704388
8.1  1.112251
8.2  1.8471
8.3  3.068328
8.4  5.09841
8.5  8.482879
8.6  14.09962
8.7  23.44169
8.8  38.98394
8.9  64.84801
9  107.8997
9.1  149.3874
9.2  206.8692
9.3  286.358
9.4  396.7257
9.5  549.737
9.6  761.9067
9.7  1057.113
9.8  1465.31
9.9  2031.498
10  2816.962
10.1  3378.925
10.2  4055.5
10.3  4870.5
10.4  5852.757
10.5  7033.705
10.6  8462.481
10.7  10187.17
10.8  12270.05
10.9  14797.29
11  17838.14
11.1  20506.29
11.2  23576.78
11.3  27110.69
11.4  31178.46
11.5  35861.28
11.6  41233.54
11.7  47440.96
11.8  54589.68
11.9  62823.31
12  72307.53
12.1  80175.31
12.2  88838.68
12.3  98447.99
12.4  109107.4
12.5  120932.7
12.6  134052.3
12.7  148609.2
12.8  164762.1
12.9  182617.8
13  202512.2
13.1  219271.1
13.2  237445.7
13.3  257299.5
13.4  278647.2
13.5  301801.7
13.6  326918.7
13.7  354167.3
13.8  383731.5
13.9  415811.4
14  450624.6
14.1  477437.1
14.2  506097.5
14.3  536528.8
14.4  568842.8
14.5  603470.7
14.6  639829.3
14.7  678440
14.8  719445.4
14.9  762997.3
15  809257
15.1  845434.9
15.2  883300.5
15.3  922611
15.4  964121.5
15.5  1.007578e+6
15.6  1.053074e+6
15.7  1.101249e+6
15.8  1.150967e+6
15.9  1.203019e+6
16  1.257519e+6
16.1  1.298762e+6
16.2  1.341445e+6
16.3  1.385621e+6
16.4  1.431344e+6
16.5  1.478167e+6
16.6  1.527195e+6
16.7  1.577948e+6
16.8  1.631509e+6
16.9  1.685664e+6
17  1.741724e+6
17.1  1.783724e+6
17.2  1.826839e+6
17.3  1.871101e+6
17.4  1.916541e+6
17.5  1.963191e+6
17.6  2.011084e+6
17.7  2.059575e+6
17.8  2.110121e+6
17.9  2.162020e+6
18  2.215311e+6
18.1  2.256693e+6
18.2  2.297577e+6
18.3  2.339316e+6
18.4  2.381928e+6
18.5  2.425432e+6
18.6  2.469846e+6
18.7  2.515192e+6
18.8  2.561488e+6
18.9  2.607914e+6
19  2.656252e+6
19.1  2.691991e+6
19.2  2.729918e+6
19.3  2.766459e+6
19.4  2.803608e+6
19.5  2.841377e+6
19.6  2.879775e+6
19.7  2.918813e+6
19.8  2.958501e+6
19.9  2.998851e+6
20  3.039873e+6
20.1  3.068504e+6
20.2  3.098614e+6
20.3  3.129139e+6
20.4  3.160086e+6
20.5  3.192767e+6
20.6  3.224080e+6
20.7  3.255821e+6
20.8  3.287995e+6
20.9  3.320609e+6
21  3.353666e+6
21.1  3.376600e+6
21.2  3.398637e+6
21.3  3.422234e+6
21.4  3.446113e+6
21.5  3.470278e+6
21.6  3.496661e+6
21.7  3.520882e+6
21.8  3.545388e+6
21.9  3.570183e+6
22  3.595269e+6
22.1  3.611917e+6
22.2  3.628759e+6
22.3  3.645794e+6
22.4  3.663024e+6
22.5  3.679317e+6
22.6  3.697059e+6
22.7  3.715000e+6
22.8  3.735166e+6
22.9  3.752925e+6
23  3.770880e+6
23.1  3.781499e+6
23.2  3.792258e+6
23.3  3.803159e+6
23.4  3.814200e+6
23.5  3.825383e+6
23.6  3.835417e+6
23.7  3.847005e+6
23.8  3.858736e+6
23.9  3.870610e+6
24  3.884687e+6
24.1  3.888851e+6
24.2  3.893124e+6
24.3  3.897506e+6
24.4  3.901996e+6
24.5  3.906594e+6
24.6  3.911300e+6
24.7  3.916112e+6
24.8  3.919725e+6
24.9  3.924876e+6
25  3.930133e+6
25.1  3.931970e+6
25.2  3.935957e+6
25.3  3.937409e+6
25.4  3.938958e+6
25.5  3.940604e+6
25.6  3.942345e+6
25.7  3.944182e+6
25.8  3.946112e+6
25.9  3.948137e+6
26  3.950254e+6
26.1  3.946736e+6
26.2  3.944619e+6
26.3  3.942593e+6
26.4  3.940658e+6
26.5  3.940247e+6
26.6  3.937896e+6
26.7  3.935633e+6
26.8  3.933458e+6
26.9  3.931370e+6
27  3.929369e+6
27.1  3.924157e+6
27.2  3.917739e+6
27.3  3.912836e+6
27.4  3.908023e+6
27.5  3.903297e+6
27.6  3.900651e+6
27.7  3.895494e+6
27.8  3.890424e+6
27.9  3.885439e+6
28  3.880539e+6
28.1  3.872678e+6
28.2  3.864910e+6
28.3  3.857234e+6
28.4  3.849648e+6
28.5  3.841001e+6
28.6  3.833722e+6
28.7  3.826530e+6
28.8  3.821371e+6
28.9  3.813734e+6
29  3.806183e+6
29.1  3.795848e+6
29.2  3.785612e+6
29.3  3.775472e+6
29.4  3.765429e+6
29.5  3.755480e+6
29.6  3.745625e+6
29.7  3.734740e+6
29.8  3.725194e+6
29.9  3.715739e+6
30  3.706372e+6
30.1  3.696844e+6
30.2  3.685532e+6
30.3  3.674318e+6
30.4  3.663200e+6
30.5  3.652177e+6
30.6  3.641248e+6
30.7  3.630412e+6
30.8  3.618450e+6
30.9  3.607920e+6
31  3.597479e+6
31.1  3.585806e+6
31.2  3.576051e+6
31.3  3.563973e+6
31.4  3.551993e+6
31.5  3.540108e+6
31.6  3.528319e+6
31.7  3.516623e+6
31.8  3.505020e+6
31.9  3.493508e+6
32  3.482087e+6
32.1  3.468271e+6
32.2  3.455741e+6
32.3  3.443307e+6
32.4  3.430969e+6
32.5  3.419899e+6
32.6  3.407166e+6
32.7  3.394529e+6
32.8  3.381987e+6
32.9  3.369539e+6
33  3.357185e+6
33.1  3.343764e+6
33.2  3.329291e+6
33.3  3.316185e+6
33.4  3.303177e+6
33.5  3.290265e+6
33.6  3.279140e+6
33.7  3.265860e+6
33.8  3.252675e+6
33.9  3.239586e+6
34  3.226592e+6
34.1  3.212755e+6
34.2  3.199019e+6
34.3  3.185381e+6
34.4  3.171843e+6
34.5  3.157395e+6
34.6  3.144163e+6
34.7  3.131025e+6
34.8  3.119616e+6
34.9  3.106085e+6
35  3.092649e+6
35.1  3.078559e+6
35.2  3.064570e+6
35.3  3.050679e+6
35.4  3.036888e+6
35.5  3.023193e+6
35.6  3.009594e+6
35.7  2.995118e+6
35.8  2.981819e+6
35.9  2.968612e+6
36  2.955498e+6
36.1  2.942987e+6
36.2  2.929005e+6
36.3  2.915120e+6
36.4  2.901332e+6
36.5  2.887639e+6
36.6  2.874041e+6
36.7  2.860535e+6
36.8  2.846065e+6
36.9  2.832851e+6
37  2.819727e+6
37.1  2.806145e+6
37.2  2.794178e+6
37.3  2.780190e+6
37.4  2.766299e+6
37.5  2.752502e+6
37.6  2.738799e+6
37.7  2.725189e+6
37.8  2.711671e+6
37.9  2.698244e+6
38  2.684908e+6
38.1  2.670237e+6
38.2  2.656685e+6
38.3  2.643226e+6
38.4  2.629858e+6
38.5  2.617513e+6
38.6  2.603796e+6
38.7  2.590172e+6
38.8  2.576640e+6
38.9  2.563198e+6
39  2.549846e+6
39.1  2.536353e+6
39.2  2.522951e+6
39.3  2.508743e+6
39.4  2.495621e+6
39.5  2.482587e+6
39.6  2.469639e+6
39.7  2.457649e+6
39.8  2.444333e+6
39.9  2.431104e+6
40  2.417962e+6
40.1  2.404538e+6
40.2  2.391202e+6
40.3  2.377956e+6
40.4  2.364797e+6
40.5  2.350853e+6
40.6  2.337966e+6
40.7  2.325164e+6
40.8  2.312446e+6
40.9  2.300650e+6
41  2.287573e+6
41.1  2.274314e+6
41.2  2.261144e+6
41.3  2.248061e+6
41.4  2.235064e+6
41.5  2.222152e+6
41.6  2.208375e+6
41.7  2.195729e+6
41.8  2.183165e+6
41.9  2.170684e+6
42  2.159613e+6
42.1  2.146563e+6
42.2  2.133599e+6
42.3  2.120720e+6
42.4  2.107926e+6
42.5  2.095214e+6
42.6  2.082585e+6
42.7  2.070039e+6
42.8  2.057573e+6
42.9  2.044352e+6
43  2.032141e+6
43.1  2.019858e+6
43.2  2.008947e+6
43.3  1.996278e+6
43.4  1.983691e+6
43.5  1.971185e+6
43.6  1.958759e+6
43.7  1.946414e+6
43.8  1.934148e+6
43.9  1.921960e+6
44  1.909850e+6
44.1  1.896830e+6
44.2  1.884801e+6
44.3  1.872850e+6
44.4  1.860975e+6
44.5  1.849881e+6
44.6  1.837607e+6
44.7  1.825411e+6
44.8  1.813294e+6
44.9  1.801254e+6
45  1.789290e+6
45.1  1.777311e+6
45.2  1.765409e+6
45.3  1.752778e+6
45.4  1.741119e+6
45.5  1.729533e+6
45.6  1.718021e+6
45.7  1.707255e+6
45.8  1.695336e+6
45.9  1.683492e+6
46  1.671723e+6
46.1  1.659901e+6
46.2  1.648155e+6
46.3  1.636484e+6
46.4  1.624886e+6
46.5  1.612570e+6
46.6  1.601208e+6
46.7  1.589919e+6
46.8  1.578701e+6
46.9  1.568194e+6
47  1.556557e+6
47.1  1.544888e+6
47.2  1.533293e+6
47.3  1.521772e+6
47.4  1.510324e+6
47.5  1.498948e+6
47.6  1.487644e+6
47.7  1.475627e+6
47.8  1.464554e+6
47.9  1.453550e+6
48  1.442615e+6
48.1  1.432340e+6
48.2  1.420954e+6
48.3  1.409640e+6
48.4  1.398396e+6
48.5  1.387223e+6
48.6  1.376119e+6
48.7  1.365085e+6
48.8  1.353248e+6
48.9  1.342439e+6
49  1.331697e+6
49.1  1.320927e+6
49.2  1.311397e+6
49.3  1.300119e+6
49.4  1.288912e+6
49.5  1.277775e+6
49.6  1.266708e+6
49.7  1.255709e+6
49.8  1.244779e+6
49.9  1.233917e+6
50  1.223122e+6
50.1  1.211551e+6
50.2  1.200917e+6
50.3  1.190350e+6
50.4  1.179848e+6
50.5  1.169916e+6
50.6  1.158890e+6
50.7  1.147933e+6
50.8  1.137044e+6
50.9  1.126222e+6
51  1.115467e+6
51.1  1.104743e+6
51.2  1.094085e+6
51.3  1.082706e+6
51.4  1.072269e+6
51.5  1.061897e+6
51.6  1.051589e+6
51.7  1.041783e+6
51.8  1.030880e+6
51.9  1.020045e+6
52  1.009277e+6
52.1  998572
52.2  987933.2
52.3  977359.8
52.4  966851.4
52.5  955609.5
52.6  945320
52.7  935093.5
52.8  926103.5
52.9  915209.6
53  904382.5
53.1  893587.5
53.2  882859.1
53.3  872196.9
53.4  861600.2
53.5  851068.6
53.6  840601.5
53.7  829382.1
53.8  819135.1
53.9  808950.7
54  798828.5
54.1  789055.6
54.2  778156.9
54.3  767325.3
54.4  756560.4
54.5  745861.5
54.6  735228.2
54.7  724660
54.8  714156.3
54.9  702874.7
55  692594
55.1  682342
55.2  672153.3
55.3  662269.7
55.4  651231.5
55.5  640261.6
55.6  629359.4
55.7  618524.3
55.8  607755.8
55.9  597053.5
56  586416.8
56.1  574911.6
56.2  564518.2
56.3  554188.2
56.4  543921.2
56.5  533215.4
56.6  521225
56.7  509308
56.8  497463.7
56.9  485691.6
57  473991.3
57.1  462356.5
57.2  449766.8
57.3  438377.9
57.4  427058.5
57.5  415807.9
57.6  405947.4
57.7  394280.7
57.8  382685
57.9  371159.7
58  359704.3
58.1  348305.5
58.2  336976.4
58.3  325716.5
58.4  314525.3
58.5  301476.7
58.6  290639.3
58.7  279868
58.8  271908.9
58.9  248474.8
59  225185.1
59.1  202035.2
59.2  179028.4
59.3  156163.6
59.4  133439.7
59.5  110855.9
59.6  88410.91
59.7  66103.85
59.8  43933.68
59.9  21899.39
60  0
