**** COMMENT ****

**** INPUTS ****
kVp [kV] hvMIN [keV] Dhv [keV]
80  8  0.1
Angle [deg.]
30
t_AIR t_BE t_AL t_CU t_SN t_W t_Ta t_Ti t_C t_Wa [mm]
1000  0.8  1.2  0  0  0  0  0  0  0
Nf P
0.68  0.33
****CALCULATED OUTPUTS ****
Brem[uGy/mAs@1m] Char[uGy/mAs@1m]
139.0834  0.6874691
HVL1[cm AL] HVL2[cm AL] HVL1[cmCu] HVL2[cmCu] MeanE[keV] EffEAl[keV] EffECu[keV]
0.1513686  0.2592802  0.0048176  0.0089592  38.36096  25.75789  26.15132
**** CALCULATED SPECTRUM ****
Energy[keV]  N[keV cm^2 mAs]^-1 @ 1 meter
8  0.7104008
8.1  1.186772
8.2  1.979563
8.3  3.303172
8.4  5.513808
8.5  9.207249
8.6  15.38031
8.7  25.70139
8.8  42.96391
8.9  71.84658
9  120.1885
9.1  167.0155
9.2  232.1428
9.3  322.7432
9.4  448.8088
9.5  623.8883
9.6  869.3889
9.7  1209.649
9.8  1683.461
9.9  2343.389
10  3262.738
10.1  3869.503
10.2  4594.278
10.3  5460.775
10.4  6497.588
10.5  7739.22
10.6  9227.329
10.7  11012.24
10.8  13154.77
10.9  15728.47
11  18822.33
11.1  21606.67
11.2  24846.21
11.3  28539.31
11.4  32786.05
11.5  37670.03
11.6  43287.57
11.7  49749.62
11.8  57184.05
11.9  65738.17
12  75581.76
12.1  83858.63
12.2  93051.4
12.3  103262.3
12.4  114605.1
12.5  127206.2
12.6  141206.5
12.7  156705.4
12.8  173992.2
12.9  193355.2
13  214695.9
13.1  233169.8
13.2  253274
13.3  275155.9
13.4  298976.4
13.5  324911.1
13.6  353152.1
13.7  383909.3
13.8  417412.1
13.9  453911.2
14  493681
14.1  524758.3
14.2  557650.9
14.3  592920.1
14.4  631026
14.5  671008.9
14.6  713610.3
14.7  759006.6
14.8  807386.5
14.9  858951.5
15  913917.4
15.1  957427.6
15.2  1.003110e+6
15.3  1.051077e+6
15.4  1.101448e+6
15.5  1.154346e+6
15.6  1.209904e+6
15.7  1.268261e+6
15.8  1.329562e+6
15.9  1.393515e+6
16  1.461205e+6
16.1  1.513999e+6
16.2  1.567587e+6
16.3  1.623200e+6
16.4  1.680915e+6
16.5  1.740817e+6
16.6  1.802991e+6
16.7  1.867528e+6
16.8  1.934521e+6
16.9  2.004067e+6
17  2.076269e+6
17.1  2.131161e+6
17.2  2.187644e+6
17.3  2.245767e+6
17.4  2.305580e+6
17.5  2.366415e+6
17.6  2.429826e+6
17.7  2.496614e+6
17.8  2.563500e+6
17.9  2.632340e+6
18  2.703191e+6
18.1  2.757729e+6
18.2  2.813520e+6
18.3  2.870594e+6
18.4  2.928984e+6
18.5  2.988719e+6
18.6  3.049834e+6
18.7  3.112361e+6
18.8  3.176334e+6
18.9  3.241790e+6
19  3.308763e+6
19.1  3.358424e+6
19.2  3.412472e+6
19.3  3.464689e+6
19.4  3.517867e+6
19.5  3.572025e+6
19.6  3.627182e+6
19.7  3.683355e+6
19.8  3.740566e+6
19.9  3.798833e+6
20  3.858178e+6
20.1  3.902376e+6
20.2  3.947242e+6
20.3  3.992785e+6
20.4  4.039017e+6
20.5  4.085946e+6
20.6  4.133584e+6
20.7  4.180777e+6
20.8  4.229980e+6
20.9  4.282244e+6
21  4.332448e+6
21.1  4.368931e+6
21.2  4.405882e+6
21.3  4.443305e+6
21.4  4.481206e+6
21.5  4.519591e+6
21.6  4.558464e+6
21.7  4.597832e+6
21.8  4.637701e+6
21.9  4.678075e+6
22  4.718961e+6
22.1  4.748072e+6
22.2  4.776090e+6
22.3  4.806005e+6
22.4  4.836261e+6
22.5  4.869348e+6
22.6  4.899709e+6
22.7  4.930412e+6
22.8  4.961462e+6
22.9  4.992860e+6
23  5.024610e+6
23.1  5.046014e+6
23.2  5.067659e+6
23.3  5.089544e+6
23.4  5.111671e+6
23.5  5.134041e+6
23.6  5.156655e+6
23.7  5.179514e+6
23.8  5.202620e+6
23.9  5.224610e+6
24  5.248357e+6
24.1  5.264272e+6
24.2  5.277166e+6
24.3  5.290232e+6
24.4  5.303470e+6
24.5  5.316881e+6
24.6  5.330463e+6
24.7  5.344217e+6
24.8  5.358144e+6
24.9  5.372242e+6
25  5.386513e+6
25.1  5.395669e+6
25.2  5.404972e+6
25.3  5.414422e+6
25.4  5.424020e+6
25.5  5.432384e+6
25.6  5.442425e+6
25.7  5.455175e+6
25.8  5.464878e+6
25.9  5.474726e+6
26  5.484718e+6
26.1  5.488068e+6
26.2  5.491544e+6
26.3  5.495146e+6
26.4  5.498873e+6
26.5  5.502724e+6
26.6  5.506698e+6
26.7  5.510796e+6
26.8  5.515016e+6
26.9  5.519357e+6
27  5.523820e+6
27.1  5.522010e+6
27.2  5.524986e+6
27.3  5.524280e+6
27.4  5.523690e+6
27.5  5.523213e+6
27.6  5.522849e+6
27.7  5.522597e+6
27.8  5.522457e+6
27.9  5.522426e+6
28  5.522506e+6
28.1  5.518069e+6
28.2  5.513743e+6
28.3  5.509527e+6
28.4  5.505421e+6
28.5  5.501422e+6
28.6  5.497531e+6
28.7  5.492402e+6
28.8  5.491910e+6
28.9  5.487853e+6
29  5.483901e+6
29.1  5.475625e+6
29.2  5.467461e+6
29.3  5.459409e+6
29.4  5.451466e+6
29.5  5.443633e+6
29.6  5.435908e+6
29.7  5.428289e+6
29.8  5.420776e+6
29.9  5.413367e+6
30  5.406062e+6
30.1  5.396401e+6
30.2  5.386849e+6
30.3  5.376103e+6
30.4  5.366911e+6
30.5  5.360095e+6
30.6  5.350474e+6
30.7  5.340959e+6
30.8  5.331549e+6
30.9  5.322243e+6
31  5.313039e+6
31.1  5.301698e+6
31.2  5.290467e+6
31.3  5.279344e+6
31.4  5.268327e+6
31.5  5.257416e+6
31.6  5.246610e+6
31.7  5.235908e+6
31.8  5.223924e+6
31.9  5.213564e+6
32  5.206063e+6
32.1  5.193116e+6
32.2  5.180280e+6
32.3  5.167553e+6
32.4  5.154934e+6
32.5  5.142423e+6
32.6  5.130017e+6
32.7  5.117717e+6
32.8  5.105520e+6
32.9  5.093426e+6
33  5.081433e+6
33.1  5.067694e+6
33.2  5.054064e+6
33.3  5.040541e+6
33.4  5.027125e+6
33.5  5.012629e+6
33.6  4.999556e+6
33.7  4.988631e+6
33.8  4.975209e+6
33.9  4.961891e+6
34  4.948676e+6
34.1  4.933944e+6
34.2  4.919322e+6
34.3  4.904810e+6
34.4  4.890405e+6
34.5  4.876107e+6
34.6  4.861914e+6
34.7  4.847826e+6
34.8  4.833841e+6
34.9  4.819959e+6
35  4.806178e+6
35.1  4.790025e+6
35.2  4.775237e+6
35.3  4.762463e+6
35.4  4.747345e+6
35.5  4.732334e+6
35.6  4.717430e+6
35.7  4.702630e+6
35.8  4.687935e+6
35.9  4.673343e+6
36  4.658853e+6
36.1  4.643630e+6
36.2  4.628512e+6
36.3  4.613499e+6
36.4  4.598589e+6
36.5  4.583781e+6
36.6  4.567879e+6
36.7  4.553394e+6
36.8  4.541319e+6
36.9  4.526502e+6
37  4.511786e+6
37.1  4.496207e+6
37.2  4.480733e+6
37.3  4.465363e+6
37.4  4.450096e+6
37.5  4.434931e+6
37.6  4.419867e+6
37.7  4.404902e+6
37.8  4.390036e+6
37.9  4.375269e+6
38  4.360598e+6
38.1  4.345124e+6
38.2  4.329751e+6
38.3  4.313456e+6
38.4  4.298399e+6
38.5  4.285101e+6
38.6  4.269721e+6
38.7  4.254442e+6
38.8  4.239261e+6
38.9  4.224178e+6
39  4.209193e+6
39.1  4.193844e+6
39.2  4.178594e+6
39.3  4.163441e+6
39.4  4.148386e+6
39.5  4.133426e+6
39.6  4.118562e+6
39.7  4.103792e+6
39.8  4.088034e+6
39.9  4.073560e+6
40  4.059178e+6
40.1  4.045840e+6
40.2  4.030548e+6
40.3  4.015352e+6
40.4  4.000251e+6
40.5  3.985245e+6
40.6  3.970333e+6
40.7  3.955514e+6
40.8  3.940787e+6
40.9  3.926152e+6
41  3.911606e+6
41.1  3.896634e+6
41.2  3.881755e+6
41.3  3.866968e+6
41.4  3.852272e+6
41.5  3.836741e+6
41.6  3.822330e+6
41.7  3.809469e+6
41.8  3.794761e+6
41.9  3.780142e+6
42  3.765613e+6
42.1  3.750831e+6
42.2  3.736139e+6
42.3  3.721537e+6
42.4  3.707023e+6
42.5  3.692598e+6
42.6  3.678260e+6
42.7  3.664008e+6
42.8  3.649843e+6
42.9  3.635762e+6
43  3.621766e+6
43.1  3.606675e+6
43.2  3.592651e+6
43.3  3.580084e+6
43.4  3.565772e+6
43.5  3.551545e+6
43.6  3.537403e+6
43.7  3.523345e+6
43.8  3.509371e+6
43.9  3.495480e+6
44  3.481672e+6
44.1  3.467603e+6
44.2  3.453618e+6
44.3  3.439715e+6
44.4  3.425895e+6
44.5  3.412157e+6
44.6  3.397562e+6
44.7  3.384081e+6
44.8  3.370678e+6
44.9  3.358657e+6
45  3.344985e+6
45.1  3.331202e+6
45.2  3.317500e+6
45.3  3.303878e+6
45.4  3.290336e+6
45.5  3.276873e+6
45.6  3.263488e+6
45.7  3.250180e+6
45.8  3.236950e+6
45.9  3.223796e+6
46  3.210718e+6
46.1  3.197444e+6
46.2  3.183349e+6
46.3  3.170321e+6
46.4  3.157367e+6
46.5  3.145696e+6
46.6  3.132456e+6
46.7  3.119292e+6
46.8  3.106203e+6
46.9  3.093190e+6
47  3.080251e+6
47.1  3.067157e+6
47.2  3.054138e+6
47.3  3.041193e+6
47.4  3.028323e+6
47.5  3.015526e+6
47.6  3.002802e+6
47.7  2.990151e+6
47.8  2.976712e+6
47.9  2.964291e+6
48  2.951940e+6
48.1  2.940800e+6
48.2  2.928172e+6
48.3  2.915616e+6
48.4  2.903131e+6
48.5  2.890716e+6
48.6  2.878371e+6
48.7  2.866095e+6
48.8  2.853887e+6
48.9  2.841748e+6
49  2.829676e+6
49.1  2.817454e+6
49.2  2.805300e+6
49.3  2.793214e+6
49.4  2.781195e+6
49.5  2.768499e+6
49.6  2.756698e+6
49.7  2.746020e+6
49.8  2.733915e+6
49.9  2.721879e+6
50  2.709909e+6
50.1  2.697855e+6
50.2  2.685869e+6
50.3  2.673950e+6
50.4  2.662097e+6
50.5  2.650309e+6
50.6  2.638587e+6
50.7  2.626928e+6
50.8  2.615334e+6
50.9  2.603804e+6
51  2.592337e+6
51.1  2.580119e+6
51.2  2.568761e+6
51.3  2.558502e+6
51.4  2.546883e+6
51.5  2.535328e+6
51.6  2.523836e+6
51.7  2.512407e+6
51.8  2.501041e+6
51.9  2.489736e+6
52  2.478493e+6
52.1  2.467292e+6
52.2  2.456151e+6
52.3  2.445070e+6
52.4  2.434050e+6
52.5  2.423089e+6
52.6  2.412187e+6
52.7  2.400652e+6
52.8  2.389945e+6
52.9  2.380265e+6
53  2.369282e+6
53.1  2.358257e+6
53.2  2.347291e+6
53.3  2.336385e+6
53.4  2.325537e+6
53.5  2.314747e+6
53.6  2.304015e+6
53.7  2.293340e+6
53.8  2.282723e+6
53.9  2.272162e+6
54  2.261657e+6
54.1  2.251133e+6
54.2  2.239920e+6
54.3  2.229583e+6
54.4  2.219302e+6
54.5  2.210002e+6
54.6  2.199453e+6
54.7  2.188959e+6
54.8  2.178521e+6
54.9  2.168139e+6
55  2.157812e+6
55.1  2.147421e+6
55.2  2.137086e+6
55.3  2.126805e+6
55.4  2.116580e+6
55.5  2.106408e+6
55.6  2.096290e+6
55.7  2.086226e+6
55.8  2.075490e+6
55.9  2.065605e+6
56  2.055772e+6
56.1  2.046869e+6
56.2  2.036759e+6
56.3  2.026702e+6
56.4  2.016698e+6
56.5  2.006747e+6
56.6  1.996848e+6
56.7  1.987000e+6
56.8  1.977204e+6
56.9  1.967458e+6
57  1.957764e+6
57.1  1.948096e+6
57.2  1.938478e+6
57.3  1.928911e+6
57.4  1.919392e+6
57.5  1.909290e+6
57.6  1.899942e+6
57.7  1.891474e+6
57.8  1.881838e+6
57.9  1.872253e+6
58  8.632287e+6
58.1  1.853151e+6
58.2  1.843636e+6
58.3  1.834169e+6
58.4  1.824752e+6
58.5  1.815383e+6
58.6  1.806062e+6
58.7  1.796790e+6
58.8  1.787565e+6
58.9  1.778388e+6
59  1.769257e+6
59.1  1.759524e+6
59.2  1.750526e+6
59.3  1.351975e+7
59.4  1.733071e+6
59.5  1.723825e+6
59.6  1.714627e+6
59.7  1.705476e+6
59.8  1.696372e+6
59.9  1.687314e+6
60  1.678302e+6
60.1  1.669280e+6
60.2  1.660305e+6
60.3  1.651375e+6
60.4  1.642491e+6
60.5  1.633652e+6
60.6  1.624858e+6
60.7  1.615503e+6
60.8  1.606867e+6
60.9  1.599032e+6
61  1.590097e+6
61.1  1.581231e+6
61.2  1.572410e+6
61.3  1.563633e+6
61.4  1.554901e+6
61.5  1.546213e+6
61.6  1.537569e+6
61.7  1.528969e+6
61.8  1.520411e+6
61.9  1.511897e+6
62  1.503425e+6
62.1  1.494933e+6
62.2  1.486484e+6
62.3  1.477483e+6
62.4  1.469186e+6
62.5  1.461656e+6
62.6  1.453053e+6
62.7  1.444494e+6
62.8  1.435979e+6
62.9  1.427506e+6
63  1.419075e+6
63.1  1.410737e+6
63.2  1.402440e+6
63.3  1.394184e+6
63.4  1.385970e+6
63.5  1.377796e+6
63.6  1.369662e+6
63.7  1.361568e+6
63.8  1.353515e+6
63.9  1.344914e+6
64  1.337006e+6
64.1  1.329714e+6
64.2  1.321372e+6
64.3  1.313072e+6
64.4  1.304814e+6
64.5  1.296598e+6
64.6  1.288422e+6
64.7  1.280288e+6
64.8  1.272194e+6
64.9  1.264141e+6
65  1.256127e+6
65.1  1.248228e+6
65.2  1.240368e+6
65.3  1.232546e+6
65.4  1.224112e+6
65.5  1.216433e+6
65.6  1.209868e+6
65.7  1.201821e+6
65.8  1.193813e+6
65.9  1.185844e+6
66  1.177914e+6
66.1  1.169950e+6
66.2  1.162025e+6
66.3  1.154140e+6
66.4  1.146294e+6
66.5  1.138487e+6
66.6  1.130718e+6
66.7  1.122988e+6
66.8  1.115295e+6
66.9  1.107640e+6
67  1.100023e+6
67.1  1.091875e+6
67.2  4.921616e+6
67.3  1.077598e+6
67.4  1.069756e+6
67.5  1.061954e+6
67.6  1.054190e+6
67.7  1.046463e+6
67.8  1.038775e+6
67.9  1.031124e+6
68  1.023510e+6
68.1  1.015918e+6
68.2  1.008364e+6
68.3  1.000846e+6
68.4  993365.4
68.5  985920.8
68.6  977860.6
68.7  970554.6
68.8  964348.4
68.9  956616
69  948921.3
69.1  1.939064e+6
69.2  933642.6
69.3  926059.2
69.4  918512.8
69.5  911003.1
69.6  883953.3
69.7  876864.9
69.8  869808.8
69.9  862785
70  855793.2
70.1  848780.6
70.2  841800.6
70.3  834280.8
70.4  827430.1
70.5  821109.5
70.6  813790.8
70.7  806506.3
70.8  799255.9
70.9  792039.3
71  784856.3
71.1  777725.4
71.2  770627.5
71.3  763562.5
71.4  756530.3
71.5  749530.6
71.6  742563.2
71.7  735628
71.8  728070.7
71.9  721265.7
72  715543.8
72.1  708188.2
72.2  700866.7
72.3  693579.2
72.4  686325.5
72.5  679105.3
72.6  671918.5
72.7  664764.9
72.8  657644.2
72.9  650556.4
73  643501.1
73.1  636469.2
73.2  629469.8
73.3  622502.8
73.4  615568
73.5  608056.7
73.6  601254.3
73.7  594895.8
73.8  587491
73.9  580120.7
74  572784.6
74.1  565489.9
74.2  558229
74.3  551001.5
74.4  543807.4
74.5  536646.5
74.6  529518.4
74.7  522423.1
74.8  515360.4
74.9  508330.1
75  500571.6
75.1  493657.8
75.2  486776.3
75.3  479875.7
75.4  471809.5
75.5  463781.3
75.6  455791
75.7  447838.3
75.8  439923
75.9  432044.9
76  424203.8
76.1  416412.9
76.2  408658
76.3  400939.1
76.4  393255.9
76.5  385608.2
76.6  377247.4
76.7  369746.1
76.8  363455.3
76.9  355621.3
77  347823.8
77.1  340061.7
77.2  332335.7
77.3  324645.6
77.4  316991.2
77.5  309372.4
77.6  301788.8
77.7  294240.3
77.8  286726.8
77.9  279248
78  271803.7
78.1  264388.4
78.2  257007.5
78.3  248243.5
78.4  241090.8
78.5  227778.9
78.6  212082.1
78.7  196460.2
78.8  180912.8
78.9  165439.3
79  150039.5
79.1  134710.8
79.2  119455.4
79.3  104272.8
79.4  89162.62
79.5  74124.46
79.6  59157.92
79.7  44262.59
79.8  29438.09
79.9  14684.02
80  0
